Time,Surge Speed,Sway Speed,Yaw Rate,Heading,x,y,Rudder Angle,Wind Direction,Wind Speed
0.0,5.410093514112772,-1.0684581219141201e-12,-1.1479815888530102e-13,-5.586642259913788e-13,540.359472464664,-1.068995914010884e-07,0.0,3.141592653589793,0
1.0,5.410103724028962,1.4265700343188003e-13,2.4934064582199655e-14,-5.586642259913788e-13,545.7696185604211,-1.068642987434032e-07,0.0,3.141592653589793,0
2.0,5.410113457108449,-1.85036140318092e-12,-8.195193502739375e-15,-5.586642259913788e-13,551.1797746562216,-1.0774336089980352e-07,0.0,3.141592653589793,0
3.0,5.410123442630905,-2.28218553730328e-12,-8.681558587628461e-15,-5.764277943853813e-13,556.5899406892902,-1.0831814023504194e-07,0.0,3.141592653589793,0
4.0,5.41013292326737,1.7296933259410001e-12,1.2093502742352176e-13,-5.764277943853813e-13,562.00011633664,-1.0953996820717293e-07,0.0,3.141592653589793,0
5.0,5.410142179510103,6.9532555076404e-13,1.1719595038933256e-14,-5.586642259913788e-13,567.4103014723748,-1.1065647242958221e-07,0.0,3.141592653589793,0
6.0,5.410151435752835,1.6230793597704e-13,-4.897568414021288e-14,-5.586642259913788e-13,572.8204958424815,-1.1182822134969683e-07,0.0,3.141592653589793,0
7.0,5.410160635897095,1.8513083556850403e-12,-3.967424277991777e-14,-5.586642259913788e-13,578.2306993181737,-1.1299451330160082e-07,0.0,3.141592653589793,0
8.0,5.410169471401494,-5.6378382502932e-13,-6.447886210926118e-14,-5.764277943853813e-13,583.6409117076233,-1.1420527101790867e-07,0.0,3.141592653589793,0
9.0,5.410177802019953,1.7206744023994e-12,-7.742280561846845e-15,-5.933031843596837e-13,589.0511328177845,-1.1535966137898868e-07,0.0,3.141592653589793,0
10.0,5.410186553376694,1.1156099085781999e-12,6.354947428257419e-14,-5.933031843596837e-13,594.4613625236531,-1.163004270665624e-07,0.0,3.141592653589793,0
11.0,5.410194855945969,2.51637055492788e-12,3.38262262329021e-14,-5.764277943853813e-13,599.8716005690799,-1.1743545513809295e-07,0.0,3.141592653589793,0
12.0,5.4102030743675344,1.4764647232132e-13,-4.723791798164387e-14,-5.764277943853813e-13,605.2818468261316,-1.1832531754407682e-07,0.0,3.141592653589793,0
13.0,5.41021098424766,2.86513702103972e-12,-2.6264005472219337e-14,-5.764277943853813e-13,610.6921011665637,-1.1946956846031753e-07,0.0,3.141592653589793,0
14.0,5.410218809980128,-1.10389380144456e-12,3.9013344769829244e-14,-5.764277943853813e-13,616.1023633341333,-1.2062693599546037e-07,0.0,3.141592653589793,0
15.0,5.410226439368099,9.780533961954001e-13,-1.3946635164478022e-14,-5.586642259913788e-13,621.5126332670213,-1.2179606301288004e-07,0.0,3.141592653589793,0
16.0,5.410233984608362,-3.3887438705792e-12,-8.901179185171082e-15,-5.764277943853813e-13,626.9229107725373,-1.229689132742351e-07,0.0,3.141592653589793,0
17.0,5.410241221307234,-2.05643820895576e-12,1.2842423524382944e-14,-5.764277943853813e-13,632.3331956605791,-1.2450071551484143e-07,0.0,3.141592653589793,0
18.0,5.410248373858399,-1.38330403867544e-12,-6.711081862126863e-14,-5.764277943853813e-13,637.7434878645932,-1.253273325119153e-07,0.0,3.141592653589793,0
19.0,5.410255526409614,-1.22615537411892e-12,-2.1432061438073035e-14,-5.764277943853813e-13,643.1537871940811,-1.265305229480873e-07,0.0,3.141592653589793,0
20.0,5.41026242651781,6.2035290523528e-13,1.900634466600958e-14,-5.764277943853813e-13,648.5640934571578,-1.2746463795565433e-07,0.0,3.141592653589793,0
21.0,5.410269298576821,3.72467094622784e-12,-4.7865945624153154e-14,-5.764277943853813e-13,653.9744065920349,-1.2834468776645735e-07,0.0,3.141592653589793,0
22.0,5.410275693799025,-2.619144495016e-13,2.0594012508907092e-14,-5.764277943853813e-13,659.3847264695074,-1.292259099727744e-07,0.0,3.141592653589793,0
23.0,5.410282229267409,-2.3787879190787603e-12,3.6018941549824315e-14,-5.764277943853813e-13,664.7950528982361,-1.3008087051957773e-07,0.0,3.141592653589793,0
24.0,5.410288484243536,7.052979551041201e-13,-1.4454235088599708e-15,-5.933031843596837e-13,670.2053857494625,-1.3151741740102807e-07,0.0,3.141592653589793,0
25.0,5.410294879465793,-6.8654173327488e-13,-5.3766612936937315e-14,-5.933031843596837e-13,675.6157248969405,-1.3242755869669054e-07,0.0,3.141592653589793,0
26.0,5.410300825900479,-2.52672174438516e-12,-2.0687096735680122e-14,-6.110667527536862e-13,681.02607027553,-1.33312227035276e-07,0.0,3.141592653589793,0
27.0,5.410307024778185,-3.7306073933436e-13,-3.624001658841026e-14,-6.110667527536862e-13,686.4364216937724,-1.3448806157612125e-07,0.0,3.141592653589793,0
28.0,5.410312746819138,-4.8252862989492e-13,6.053441799975398e-14,-6.110667527536862e-13,691.8467790259456,-1.3568561740839868e-07,0.0,3.141592653589793,0
29.0,5.410318553007747,8.0971760669268e-13,-1.3039209397545305e-13,-6.110667527536862e-13,697.2571422054702,-1.3651322205987526e-07,0.0,3.141592653589793,0
30.0,5.410325873854276,8.828050747134294e-06,-6.464962221439421e-11,-1.6404655411861313e-12,702.6675111049077,6.232595950450559e-08,0.0034906583668433046,3.141592653589793,0
31.0,5.410736654686571,0.008727850302725975,-3.796552391544226e-06,-1.013618655676396e-06,708.0781354190515,0.003138616085195167,0.1780235767358997,3.141592653589793,0
32.0,5.40717715252348,0.027720204436976807,-2.5933355359107463e-05,-1.4096378055938885e-05,713.4877159832731,0.021188887739683082,0.3490658402442925,3.141592653589793,0
33.0,5.399928168110156,0.039471254056377435,-6.811064496785354e-05,-6.035060184839125e-05,718.8912262115223,0.05585214256325344,0.3490658402442925,3.141592653589793,0
34.0,5.393025086682345,0.04043137339122151,-0.00011577492199740551,-0.00015271936973970668,724.2876717458302,0.09586753045740437,0.3490658402442925,3.141592653589793,0
35.0,5.386287046867218,0.03689483784212428,-0.0001597734080859,-0.0002913769276355893,729.6773232221719,0.1334287480923706,0.3490658402442925,3.141592653589793,0
36.0,5.379493469595748,0.033851052589130314,-0.00019855796520393848,-0.00047133566113455316,735.0602268758897,0.16652261015880043,0.3490658402442925,3.141592653589793,0
37.0,5.372623991133978,0.03424721802451099,-0.0002350179077919166,-0.0006885033114523154,740.4362920250041,0.197090707155958,0.3490658402442925,3.141592653589793,0
38.0,5.365856247194452,0.03905250352021649,-0.0002737457004566035,-0.0009427973760907093,745.8055337424369,0.22904693431130596,0.3490658402442925,3.141592653589793,0
39.0,5.359321536177784,0.04733704192127225,-0.0003189467123077818,-0.0012388133430105697,751.1681370911928,0.26624514460599613,0.3490658402442925,3.141592653589793,0
40.0,5.352985413641266,0.05716875208955045,-0.0003728849114848032,-0.0015844241578957252,756.5243407157704,0.31097883525372794,0.3490658402442925,3.141592653589793,0
41.0,5.346726342313157,0.06661076041465776,-0.0004353483638942865,-0.0019884489558776863,761.874291049047,0.36349107857497387,0.3490658402442925,3.141592653589793,0
42.0,5.340482838302277,0.07439606739663224,-0.0005042396506346692,-0.002458434784778696,767.2180310001697,0.4223485158551554,0.3490658402442925,3.141592653589793,0
43.0,5.334305278008529,0.08015440360451145,-0.0005767432260598157,-0.0029993437038893234,772.555602337111,0.48526943941948986,0.3490658402442925,3.141592653589793,0
44.0,5.3282712455753956,0.08426180389884515,-0.0006502392249836429,-0.0036134420044975357,777.8871147052572,0.5499901790300399,0.3490658402442925,3.141592653589793,0
45.0,5.322386855732926,0.08748046464582888,-0.0007230434737932384,-0.004300772705496669,783.2127289035357,0.6148474893249514,0.3490658402442925,3.141592653589793,0
46.0,5.316579965886334,0.09057262647683584,-0.0007946327814884257,-0.005060320637905846,788.5325654348071,0.6789745807899052,0.3490658402442925,3.141592653589793,0
47.0,5.310782163987161,0.09403925065897727,-0.0008652955327892332,-0.005890963489517453,793.8466693837696,0.7421560016132673,0.3490658402442925,3.141592653589793,0
48.0,5.305001444063137,0.0980362492219371,-0.0009356174850833493,-0.006792020518319397,799.155057925898,0.8045074263845606,0.3490658402442925,3.141592653589793,0
49.0,5.299302515665731,0.10244181448184801,-0.0010060962043042267,-0.007763446171710875,804.4577868779679,0.8661507848299266,0.3490658402442925,3.141592653589793,0
50.0,5.293732052697649,0.10699621504079791,-0.0010769609224924764,-0.008805519846427856,809.7549789143068,0.9270039163986041,0.3490658402442925,3.141592653589793,0
51.0,5.288271121935043,0.11144065389052608,-0.0011481457828157555,-0.009918654501877455,815.0467646884846,0.9867140812372099,0.3490658402442925,3.141592653589793,0
52.0,5.282865027398289,0.11560680283864647,-0.0012193594388112846,-0.011103032759432807,820.3332325216363,1.0447109618264534,0.3490658402442925,3.141592653589793,0
53.0,5.277484373504379,0.11944577472367363,-0.0012902098995465985,-0.012358466437189186,825.614422193996,1.100318270247854,0.3490658402442925,3.141592653589793,0
54.0,5.272148878855308,0.12300754317611232,-0.001360334579229921,-0.013684413998433342,830.8903657021552,1.1528656860764244,0.3490658402442925,3.141592653589793,0
55.0,5.26689582086487,0.12639447733184675,-0.0014294950729780754,-0.015079987947554052,836.1611311827127,1.2017703817352583,0.3490658402442925,3.141592653589793,0
56.0,5.261735493596963,0.12971112233268514,-0.0014976052676927078,-0.016544202123483842,841.4268089957733,1.2465596426828256,0.3490658402442925,3.141592653589793,0
57.0,5.256640408815598,0.13302856498322727,-0.0015646964243117034,-0.01807600840486856,846.687482288374,1.2868589946303928,0.3490658402442925,3.141592653589793,0
58.0,5.251581255085575,0.136370926736452,-0.0016308474792712303,-0.0196744227672232,851.9432010611697,1.3223471789754058,0.3490658402442925,3.141592653589793,0
59.0,5.2465550872387094,0.13972299439646182,-0.00169612462495368,-0.0213385473060157,857.1939959645429,1.3527105881069588,0.3490658402442925,3.141592653589793,0
60.0,5.2415858312599255,0.143049679265116,-0.00176055591060366,-0.023067500661391627,862.4399117665429,1.3776163614617616,0.3490658402442925,3.141592653589793,0
61.0,5.236692139880817,0.14631611440842018,-0.0018241308314503567,-0.024860465022554123,867.6810113049158,1.3966956740938343,0.3490658402442925,3.141592653589793,0
62.0,5.231868739847999,0.1495004442244797,-0.0018868154490034833,-0.0267165512503853,872.9173660346845,1.4095600915100448,0.3490658402442925,3.141592653589793,0
63.0,5.2270930795881885,0.1525972902752897,-0.0019485657377275069,-0.0286348584820173,878.1490269194712,1.415810666805541,0.3490658402442925,3.141592653589793,0
64.0,5.222350741802213,0.15561432139300488,-0.002009341780862963,-0.030614429756112393,883.3760237795539,1.4150565094064262,0.3490658402442925,3.141592653589793,0
65.0,5.217648766844346,0.158565890889611,-0.0020691188983616195,-0.03265425935386368,888.5983831169997,1.4069266530231772,0.3490658402442925,3.141592653589793,0
66.0,5.213003675705376,0.16146671671695795,-0.0021278918994697225,-0.03475336861959111,893.8161400543978,1.391064826725568,0.3490658402442925,3.141592653589793,0
67.0,5.208420152605089,0.16432735151767075,-0.0021856732885624204,-0.036910734851563376,899.0293447200288,1.3671403507417068,0.3490658402442925,3.141592653589793,0
68.0,5.203887959578112,0.1671522279451055,-0.0022424832671220363,-0.03912539736311871,904.2380395823669,1.3348298977782207,0.3490658402442925,3.141592653589793,0
69.0,5.19939430617988,0.16994014338893892,-0.002298341146396068,-0.041396389331877614,909.4422535705382,1.2938203319855432,0.3490658402442925,3.141592653589793,0
70.0,5.194935770405611,0.17268680894806918,-0.002353260909919061,-0.04372275642611623,914.6420056492256,1.2438020095861475,0.3490658402442925,3.141592653589793,0
71.0,5.190520907267392,0.17538774288300452,-0.0024072522270106827,-0.04610358047133101,919.83731401746,1.184461455534418,0.3490658402442925,3.141592653589793,0
72.0,5.186157738842345,0.1780403559000904,-0.002460321644320796,-0.048537919188236245,925.0282079914608,1.1154934367513647,0.3490658402442925,3.141592653589793,0
73.0,5.1818454797522735,0.18064460154280404,-0.0025124743115154027,-0.05102487193309724,930.2147153451285,1.0365893083310738,0.3490658402442925,3.141592653589793,0
74.0,5.177574032277776,0.18317656697424578,-0.0025637079276799074,-0.05356351264257242,935.3968576693364,0.9474448979723888,0.3490658402442925,3.141592653589793,0
75.0,5.173336608507655,0.18561333598137394,-0.002613980336771889,-0.05615290210526602,940.5746430708149,0.8477213516967623,0.3490658402442925,3.141592653589793,0
76.0,5.169134554804361,0.1880054032966177,-0.002663278418099777,-0.05879207525182295,945.7480748080538,0.7371068011997863,0.3490658402442925,3.141592653589793,0
77.0,5.164974210291783,0.19038809866610545,-0.002711639808052327,-0.061480061315418055,950.9171641867312,0.6153451456223848,0.3490658402442925,3.141592653589793,0
78.0,5.1608593896638535,0.19277371816681693,-0.0027591235497415843,-0.06421596513072814,956.0819240412841,0.4822003826806025,0.3490658402442925,3.141592653589793,0
79.0,5.156785801389885,0.1951555256031724,-0.002805785536217945,-0.06699893097666099,961.242368870262,0.3374518652774299,0.3490658402442925,3.141592653589793,0
80.0,5.152747723428873,0.19751671686255842,-0.0028516624862435047,-0.06982816229847266,966.398503786165,0.18086574278957812,0.3490658402442925,3.141592653589793,0
81.0,5.148744117959755,0.1998398435768293,-0.0028967696159856245,-0.07270288818021697,971.550327253828,0.012195776933836555,0.3490658402442925,3.141592653589793,0
82.0,5.144777144772365,0.20211327496145168,-0.002941107843070945,-0.0756223201751478,976.6978371690454,-0.16881060999472197,0.3490658402442925,3.141592653589793,0
83.0,5.140850450265446,0.20433334182778687,-0.0029846706345455503,-0.07858571760792366,981.8410291297105,-0.3624188378403801,0.3490658402442925,3.141592653589793,0
84.0,5.136962603928735,0.20650319007120696,-0.003027452032684139,-0.0815922696800655,986.9799023062625,-0.5688781007736168,0.3490658402442925,3.141592653589793,0
85.0,5.13311063254488,0.20862950329500146,-0.0030694516403050147,-0.08464121599406216,992.1144487808297,-0.7884373556775728,0.3490658402442925,3.141592653589793,0
86.0,5.129290749469119,0.2107192876684962,-0.003110676319064219,-0.08773176854145515,997.2446568719183,-1.0213294741934646,0.3490658402442925,3.141592653589793,0
87.0,5.125503038849126,0.21277759731058582,-0.003151140477069795,-0.09086316166553399,1002.370512661247,-1.2677757694983285,0.3490658402442925,3.141592653589793,0
88.0,5.121750614148351,0.21480671122042533,-0.0031908625901181102,-0.0940346468020703,1007.4920001211149,-1.5279963490704347,0.3490658402442925,3.141592653589793,0
89.0,5.1180342607449685,0.21680653823804863,-0.0032298604492095725,-0.0972454845905153,1012.6091071864195,-1.8021960670101436,0.3490658402442925,3.141592653589793,0
90.0,5.114352548128743,0.21877554968094576,-0.003268149078768592,-0.10049496108992262,1017.7218164268777,-2.0905870959433486,0.3490658402442925,3.141592653589793,0
91.0,5.110702475033087,0.22071206084281816,-0.003305739955976366,-0.1037823776988187,1022.830108623846,-2.393371464564325,0.3490658402442925,3.141592653589793,0
92.0,5.107083087784521,0.22261500672983037,-0.003342642914503568,-0.10710703625396611,1027.9339599614443,-2.710751374283106,0.3490658402442925,3.141592653589793,0
93.0,5.103495480302623,0.22448312688014158,-0.0033788670895290216,-0.1104682613821284,1033.0333436251915,-3.0429291194121504,0.3490658402442925,3.141592653589793,0
94.0,5.099940578211678,0.22631594533354393,-0.003414420506861908,-0.11386536456203356,1038.1282349036373,-3.390096788726879,0.3490658402442925,3.141592653589793,0
95.0,5.096418157117915,0.22811692967490485,-0.0034493122468974057,-0.11729769934623935,1043.2186047480725,-3.7524520487490207,0.3490658402442925,3.141592653589793,0
96.0,5.092926926757206,0.22988899702314372,-0.0034835532663716304,-0.12076459299113207,1048.3044251887882,-4.130174148772312,0.3490658402442925,3.141592653589793,0
97.0,5.089464839536459,0.23163375933189267,-0.0035171563846659493,-0.1242654029937107,1053.3856632823642,-4.523443498067408,0.3490658402442925,3.141592653589793,0
98.0,5.086032035701772,0.2333516496109913,-0.003550135174437255,-0.12779951533847456,1058.46228397611,-4.932434861950398,0.3490658402442925,3.141592653589793,0
99.0,5.082629581123526,0.23504233915863834,-0.0035825029481200135,-0.13136628270147632,1063.5342527269927,-5.357314145119261,0.3490658402442925,3.141592653589793,0
100.0,5.079257475801711,0.2367052634842744,-0.0036142716348607365,-0.13496512525219018,1068.6015307774046,-5.798256374156736,0.3490658402442925,3.141592653589793,0
101.0,5.075915158751932,0.23834001412112743,-0.0036454514929036333,-0.13859543379612838,1073.6640820547905,-6.255418412202246,0.3490658402442925,3.141592653589793,0
102.0,5.072601564103812,0.23994664716763808,-0.0036760513698132053,-0.1422566455952996,1078.7218644835032,-6.728965921760732,0.3490658402442925,3.141592653589793,0
103.0,5.069315457691647,0.2415256096582562,-0.0037060800994579805,-0.1459481593440346,1083.7748350271038,-7.219055384320171,0.3490658402442925,3.141592653589793,0
104.0,5.066057793188935,0.2430776860946137,-0.0037355475702923633,-0.14966941668703537,1088.8229494382854,-7.72583819346147,0.3490658402442925,3.141592653589793,0
105.0,5.062828093758933,0.24460370480524987,-0.0037644636981625395,-0.15341987942945945,1093.866160214547,-8.249469815096958,0.3490658402442925,3.141592653589793,0
106.0,5.059627313075129,0.24610443539064833,-0.0037928388782719888,-0.1571989786975232,1098.9044225349933,-8.790089209982867,0.3490658402442925,3.141592653589793,0
107.0,5.056453543790535,0.24758043883521666,-0.003820682738852634,-0.1610061885679146,1103.937686149958,-9.347844235228195,0.3490658402442925,3.141592653589793,0
108.0,5.053306785905157,0.2490321455191799,-0.0038480049355282355,-0.1648409866234477,1108.965901387209,-9.922869825120813,0.3490658402442925,3.141592653589793,0
109.0,5.05018650648381,0.25045987187280455,-0.0038748153293612737,-0.16870284431117621,1113.9890157607535,-10.51530095712134,0.3490658402442925,3.141592653589793,0
110.0,5.047092621378825,0.25186392468443913,-0.003901123521191921,-0.17259126638661204,1119.0069746813422,-11.125272978911255,0.3490658402442925,3.141592653589793,0
111.0,5.044025747673056,0.25324460197705045,-0.003926938947509124,-0.17650574358067495,1124.019725091604,-11.752908523700484,0.3490658402442925,3.141592653589793,0
112.0,5.040985408529753,0.254602275402807,-0.003952271113281536,-0.18044579292042595,1129.027209016945,-12.398340288864745,0.3490658402442925,3.141592653589793,0
113.0,5.037970762472305,0.2559372797992785,-0.003977127811487784,-0.1844109401982994,1134.0293705285706,-13.061684444857633,0.3490658402442925,3.141592653589793,0
114.0,5.03498147291007,0.2572500884970572,-0.004001517917084146,-0.18840072347833647,1139.026149671545,-13.743062394891837,0.3490658402442925,3.141592653589793,0
115.0,5.03201759594149,0.2585410871729241,-0.004025450359810611,-0.1924146554049022,1144.017485279715,-14.442591183247686,0.3490658402442925,3.141592653589793,0
116.0,5.029078907172799,0.2598105808621508,-0.00404893420636635,-0.19645230472085462,1149.0033172753479,-15.160378589652126,0.3490658402442925,3.141592653589793,0
117.0,5.02616551880088,0.2610585520339735,-0.004071978578234238,-0.20051321562595703,1153.9835800195865,-15.896543444654128,0.3490658402442925,3.141592653589793,0
118.0,5.023276841792107,0.2622857176965892,-0.004094591035562224,-0.20459695511000753,1158.9582119046217,-16.65118404670237,0.3490658402442925,3.141592653589793,0
119.0,5.020412034669863,0.2634925704644297,-0.004116778919363534,-0.20870309454550107,1163.9271458220774,-17.424409229029024,0.3490658402442925,3.141592653589793,0
120.0,5.017571546221681,0.2646793820643174,-0.0041385498445698455,-0.21283121669990823,1168.8903152478972,-18.21631860969157,0.3490658402442925,3.141592653589793,0
121.0,5.014754843512371,0.2658463979269306,-0.004159912384827175,-0.21698091047647505,1173.8476530137823,-19.027007779110946,0.3490658402442925,3.141592653589793,0
122.0,5.01196229118179,0.26699388276678687,-0.00418087347027116,-0.22115176740811826,1178.7990879941028,-19.856578619011117,0.3490658402442925,3.141592653589793,0
