Time,Surge Speed,Sway Speed,Yaw Rate,Heading,x,y,Rudder Angle,Wind Direction,Wind Speed
0.0,5.410456583221194,3.51579246299568e-12,-3.719296635999916e-14,-6.803446694902959e-13,876.8838382981982,-1.8239832400013256e-07,0.0,3.141592653589793,0
1.0,5.410459163749464,-2.6054168964090404e-12,3.1054061604317775e-14,-6.981082378842984e-13,882.2943435562494,-1.8323866868286132e-07,0.0,3.141592653589793,0
2.0,5.41046222111449,-1.87664754183816e-12,-1.7920458983060443e-14,-7.149836278586008e-13,887.7048516616438,-1.8409394897389575e-07,0.0,3.141592653589793,0
3.0,5.4104648577411805,-2.0301259468322e-12,1.6919512657041697e-14,-7.149836278586008e-13,893.1153626148264,-1.8532658430103766e-07,0.0,3.141592653589793,0
4.0,5.410467718761708,-8.790346297964e-14,8.45321134382587e-15,-7.327471962526033e-13,898.5258762861554,-1.8629314979534684e-07,0.0,3.141592653589793,0
5.0,5.410470439536056,-1.82702714419568e-12,-6.131632550464745e-15,-7.496225862269057e-13,903.9363926126211,-1.8767885023862618e-07,0.0,3.141592653589793,0
6.0,5.410472963965906,2.7286123649988e-12,4.2522329230963846e-14,-7.496225862269057e-13,909.3469115949702,-1.8884696828536107e-07,0.0,3.141592653589793,0
7.0,5.410475348149627,-1.7499059078676e-13,6.5766915097233e-15,-7.673861546209082e-13,914.7574331693089,-1.903814705883633e-07,0.0,3.141592653589793,0
8.0,5.410478181120868,-3.26368062044752e-12,-1.1792666156950085e-13,-7.673861546209082e-13,920.1679572068324,-1.9153770836055628e-07,0.0,3.141592653589793,0
9.0,5.410480593353825,2.0908747096272003e-13,3.441498396724152e-14,-7.673861546209082e-13,925.5784837715495,-1.933112372398682e-07,0.0,3.141592653589793,0
10.0,5.410482977537547,4.3727075852796e-13,-4.127907302712655e-14,-7.860379014346108e-13,930.98901273758,-1.94479909509937e-07,0.0,3.141592653589793,0
11.0,5.4104853617212685,-2.7490469809558e-12,4.235274140531173e-14,-7.860379014346108e-13,936.3995441032934,-1.9539062634521542e-07,0.0,3.141592653589793,0
12.0,5.410487549560493,6.508317676369601e-13,-1.6658295045659878e-14,-7.673861546209082e-13,941.8100777412053,-1.96589297729588e-07,0.0,3.141592653589793,0
13.0,5.410489653252008,-1.0991198434356001e-13,3.9620719349523273e-14,-7.673861546209082e-13,947.2206137144199,-1.9779564297550678e-07,0.0,3.141592653589793,0
14.0,5.41049203743573,1.78168436899096e-12,2.8395343377113078e-14,-7.673861546209082e-13,952.6311518971204,-1.9891803049176815e-07,0.0,3.141592653589793,0
15.0,5.410493944782748,-2.25174586010108e-12,-1.608146372787575e-14,-7.496225862269057e-13,958.0416922876857,-2.0041930781644623e-07,0.0,3.141592653589793,0
16.0,5.410496328966469,1.4510602438276002e-13,3.07704456008687e-14,-7.496225862269057e-13,963.4522348224898,-2.012900495174108e-07,0.0,3.141592653589793,0
17.0,5.410498236313437,-6.7073739626208e-13,-3.3737214441050384e-14,-7.496225862269057e-13,968.8627794376404,-2.0249132148819626e-07,0.0,3.141592653589793,0
18.0,5.41050017170964,2.5501735538244e-12,1.7119352856395045e-14,-7.496225862269057e-13,974.273326134815,-2.0369009234855184e-07,0.0,3.141592653589793,0
19.0,5.410502527844177,1.64931977978936e-12,5.823785559233812e-14,-7.496225862269057e-13,979.6838748474909,-2.0451363980100723e-07,0.0,3.141592653589793,0
20.0,5.410504435191144,3.6856760087168e-13,-8.879944345938481e-15,-7.496225862269057e-13,985.0944255143228,-2.0570590208990325e-07,0.0,3.141592653589793,0
21.0,5.410506342538111,-1.6458650259629201e-12,1.0486229034190597e-14,-7.327471962526033e-13,990.5049781962496,-2.0662417909989017e-07,0.0,3.141592653589793,0
22.0,5.41050824988513,-2.23608520215304e-12,-2.639083273119759e-14,-7.327471962526033e-13,995.9155327043791,-2.0780483112048387e-07,0.0,3.141592653589793,0
23.0,5.410510157232096,1.32370470839852e-12,5.172865014702526e-15,-7.327471962526033e-13,1001.3260891018435,-2.0893823204914952e-07,0.0,3.141592653589793,0
24.0,5.41051184018533,-2.0019263131392e-13,5.64500566618786e-14,-7.496225862269057e-13,1006.7366473225368,-2.0985490323255362e-07,0.0,3.141592653589793,0
25.0,5.410513495089327,4.3647400823852e-13,3.6214418426047674e-14,-7.496225862269057e-13,1012.1472073703067,-2.1101931224620785e-07,0.0,3.141592653589793,0
26.0,5.410515402436294,-2.08177086681452e-12,7.216180147654021e-14,-7.496225862269057e-13,1017.5577691159376,-2.1191861776514997e-07,0.0,3.141592653589793,0
27.0,5.410516832946557,-2.30374997002864e-12,-1.1161176944757673e-13,-7.496225862269057e-13,1022.968332557356,-2.1366869873418182e-07,0.0,3.141592653589793,0
28.0,5.410518740293524,-9.2269902630668e-13,-1.1602483446124437e-13,-7.496225862269057e-13,1028.3788977606614,-2.154382627850282e-07,0.0,3.141592653589793,0
29.0,5.410520170803789,-1.8718148086022e-12,-1.4768394353958686e-15,-7.496225862269057e-13,1033.7894645339022,-2.1661850269083516e-07,0.0,3.141592653589793,0
30.0,5.410524462334477,1.5003574612681654e-05,-1.0979728239663672e-10,-2.5304203177256568e-12,1039.2000330693993,1.2225153511735698e-07,0.005934119223392535,3.141592653589793,0
31.0,5.410923182002035,0.008950745240179109,-3.952283992294085e-06,-1.0704949220396998e-06,1044.6108585448862,0.0032656042955352405,0.18046703759245256,3.141592653589793,0
32.0,5.407254989110034,0.02799479490930938,-2.6407804398101568e-05,-1.4462193952624602e-05,1050.0205805769072,0.021574854534023302,0.3549999559615098,3.141592653589793,0
33.0,5.393715265798816,0.042364379277031745,-7.07932391803046e-05,-6.191358861240559e-05,1055.4219833174911,0.057746477156683795,0.523598790168763,3.141592653589793,0
34.0,5.374857298108988,0.04420955056331684,-0.00012367231915121275,-0.00015943550918873228,1060.8061264706766,0.10119645469306704,0.523598790168763,3.141592653589793,0
35.0,5.356156574348507,0.040779256038194815,-0.00017336651816356557,-0.0003088116200764546,1066.1715433920917,0.14254573527135506,0.523598790168763,3.141592653589793,0
36.0,5.337150170184441,0.03793912412188031,-0.00021838544446752824,-0.0005055871442909421,1071.5181331192775,0.17946016520897956,0.523598790168763,3.141592653589793,0
37.0,5.317755648958157,0.03876467228186126,-0.0002622319426493976,-0.0007464225807982672,1076.845515055327,0.21410710850680914,0.523598790168763,3.141592653589793,0
38.0,5.298285731427511,0.04411879446200204,-0.00030951506992327985,-0.0010322939453768498,1082.1534388724065,0.25050163361207467,0.523598790168763,3.141592653589793,0
39.0,5.27911714667129,0.05322426539236549,-0.00036426199949304193,-0.0013688136823430952,1087.4420426989223,0.29265602766643894,0.523598790168763,3.141592653589793,0
40.0,5.2603638586718375,0.06420914233983054,-0.00042897997841681535,-0.001765048747663478,1092.7117275020614,0.34313857947122983,0.523598790168763,3.141592653589793,0
41.0,5.2418273350474225,0.07505640038940113,-0.0005040305002367601,-0.00223143020753902,1097.9628335848806,0.40245458126800315,0.523598790168763,3.141592653589793,0
42.0,5.223264473205026,0.0843476853523345,-0.0005876121542629302,-0.0027774587300912756,1103.195461272534,0.46929501660416406,0.523598790168763,3.141592653589793,0
43.0,5.204647336121236,0.09159582390640257,-0.0006768217529437445,-0.003410167266219233,1108.4095497041003,0.5413651927170946,0.523598790168763,3.141592653589793,0
44.0,5.186145817923789,0.0971202493385271,-0.0007688778123866224,-0.004133642870272958,1113.6051367493453,0.6162870113952863,0.523598790168763,3.141592653589793,0
45.0,5.167898089072257,0.10168549311249776,-0.0008619344957604174,-0.004949753693136216,1118.7824257338245,0.6922532465620463,0.523598790168763,3.141592653589793,0
46.0,5.149853408526927,0.10610701618745247,-0.0009553693508831841,-0.005859174793028998,1123.941668705619,0.7682768988465511,0.523598790168763,3.141592653589793,0
47.0,5.131844855377464,0.11095699022698036,-0.0010494838934384568,-0.006862378213551068,1129.0830019422112,0.8440846826490258,0.523598790168763,3.141592653589793,0
48.0,5.113784972154717,0.11644497446260332,-0.001144892008810061,-0.007960340227274543,1134.2064110751685,0.9197949067929301,0.523598790168763,3.141592653589793,0
49.0,5.095752633266371,0.12246200950645991,-0.0012420529143548531,-0.00915450854774047,1139.3118995486618,0.9955620543871504,0.523598790168763,3.141592653589793,0
50.0,5.077889403127621,0.1287304952924568,-0.0013411273659363534,-0.010446770171463449,1144.3995820543155,1.071324392864014,0.523598790168763,3.141592653589793,0
51.0,5.0602439471358,0.134969963721716,-0.0014420283739173159,-0.011839054360542,1149.4696821630807,1.1467254620252731,0.523598790168763,3.141592653589793,0
52.0,5.0427353713393765,0.14098777669317455,-0.0015444976948741378,-0.013333088827905293,1154.5224007085794,1.221164214167132,0.523598790168763,3.141592653589793,0
53.0,5.025258322866648,0.14671424153613657,-0.0016481691820757866,-0.01493028754038761,1159.5578228161337,1.293906797365878,0.523598790168763,3.141592653589793,0
54.0,5.007795888037732,0.1521880135824207,-0.0017526442773960487,-0.016631568179405143,1164.5759786224216,1.3642085164646574,0.523598790168763,3.141592653589793,0
55.0,4.990422733877239,0.15751277589857773,-0.0018575926215434193,-0.0184375708374791,1169.5769196637498,1.4313988417100347,0.523598790168763,3.141592653589793,0
56.0,4.97320351383813,0.16280680240497825,-0.0019628417760344337,-0.02034865911390238,1174.5607878328467,1.49492495760542,0.523598790168763,3.141592653589793,0
57.0,4.956102885902731,0.16815957274420887,-0.0020684096551327265,-0.02236515601328737,1179.5277349858698,1.5543432719041022,0.523598790168763,3.141592653589793,0
58.0,4.939089519091896,0.1736045329819447,-0.0021743544870431,-0.02448743077759552,1184.4778687868359,1.609276664316866,0.523598790168763,3.141592653589793,0
59.0,4.922150118075174,0.17903115779494255,-0.002280681010553937,-0.026715831611952012,1189.4112827228769,1.6593193445269918,0.523598790168763,3.141592653589793,0
60.0,4.905294387882805,0.18442532440074602,-0.0023872949977341695,-0.029050731374043792,1194.328053299262,1.703975412757032,0.523598790168763,3.141592653589793,0
61.0,4.888541878821389,0.18983326492682598,-0.0024941391722454534,-0.03149234788380895,1199.2282849871317,1.742790116903393,0.523598790168763,3.141592653589793,0
62.0,4.871899322703813,0.19527844517563428,-0.0026011992629389265,-0.03404092021723315,1204.112088453007,1.775344270324922,0.523598790168763,3.141592653589793,0
63.0,4.855354714463766,0.20076057063035765,-0.0027084771324597393,-0.03669667660311582,1208.9795710418787,1.8012336329404235,0.523598790168763,3.141592653589793,0
64.0,4.838894478278576,0.20626279773416525,-0.002815962070598277,-0.03945980221031409,1213.8308293071184,1.820050802747673,0.523598790168763,3.141592653589793,0
65.0,4.82251642630907,0.21176291939336905,-0.002923619344500886,-0.04233053348518023,1218.665936433032,1.8313661465519573,0.523598790168763,3.141592653589793,0
66.0,4.806232283129354,0.2172432681052899,-0.0030313945950602226,-0.04530896597045597,1223.4849838624918,1.834739937047857,0.523598790168763,3.141592653589793,0
67.0,4.790051333031366,0.22269567278142008,-0.003139226094763896,-0.04839521515016454,1228.2880598482302,1.8297169514006413,0.523598790168763,3.141592653589793,0
68.0,4.773970967437618,0.22812114494676788,-0.0032470544444058802,-0.05158930337602019,1233.075258837438,1.815845210182701,0.523598790168763,3.141592653589793,0
69.0,4.757980106906063,0.23352610874933702,-0.0033548277227527334,-0.05489118572541507,1237.8466665271246,1.7926822675543974,0.523598790168763,3.141592653589793,0
70.0,4.742072440362123,0.23891816377476927,-0.003462502226122969,-0.05830082209668319,1242.6023486289628,1.7597933899742912,0.523598790168763,3.141592653589793,0
71.0,4.726250548334057,0.24430307764400383,-0.0035700427286098017,-0.061818045290042534,1247.3423783871535,1.7167627354734236,0.523598790168763,3.141592653589793,0
72.0,4.71052248094813,0.24968340458917035,-0.0036774203044297954,-0.06544274267024974,1252.0668212593248,1.6631754662764848,0.523598790168763,3.141592653589793,0
73.0,4.694891576061551,0.2550584749351325,-0.0037846084656732036,-0.06917472183700735,1256.7757545766956,1.5986276494507052,0.523598790168763,3.141592653589793,0
74.0,4.679353009208426,0.26042514979882303,-0.0038915787933055776,-0.07301377943329701,1261.4692481372133,1.5227161905720692,0.523598790168763,3.141592653589793,0
75.0,4.663899291246907,0.2657793515248313,-0.003998299540183897,-0.07695969763919841,1266.1473587129776,1.4350371855718151,0.523598790168763,3.141592653589793,0
76.0,4.648529468503512,0.27111734430761997,-0.004104736041934069,-0.08101218412901012,1270.8101427535164,1.3351946566356645,0.523598790168763,3.141592653589793,0
77.0,4.633247047130784,0.2764368088272798,-0.004210855044861823,-0.08517096629909293,1275.4576434289997,1.2227855227319964,0.523598790168763,3.141592653589793,0
78.0,4.618056178413333,0.2817368457556821,-0.004316623267881017,-0.08943568126240375,1280.0899159791102,1.0974193860293155,0.523598790168763,3.141592653589793,0
79.0,4.602955880628447,0.28701745859897987,-0.004422008114701564,-0.09380597577370864,1284.7070068286794,0.958704665872844,0.523598790168763,3.141592653589793,0
80.0,4.587941385408667,0.292278713974072,-0.004526976879465993,-0.0982814619645973,1289.3089562757384,0.8062563748591742,0.523598790168763,3.141592653589793,0
81.0,4.573008878060022,0.2975203804748892,-0.004631497897206739,-0.10286167263980239,1293.8958014867353,0.6397003262653129,0.523598790168763,3.141592653589793,0
82.0,4.558159312256007,0.302741741093237,-0.004735542159964821,-0.10754620064703069,1298.467562578956,0.4586570195313726,0.523598790168763,3.141592653589793,0
83.0,4.543395072180346,0.3079416563295375,-0.004839081892413999,-0.11233449245195093,1303.0242724399145,0.26276538368867364,0.523598790168763,3.141592653589793,0
84.0,4.528718177376907,0.31311921283105254,-0.004942080663406563,-0.11722607516186034,1307.5659509354607,0.05165769793900665,0.523598790168763,3.141592653589793,0
85.0,4.514123522887594,0.31831664746442634,-0.005043411600019023,-0.12221996004086222,1312.0926197148706,-0.17500305458376886,0.523598790168763,3.141592653589793,0
86.0,4.499607153772319,0.32344989671621865,-0.0051423855783298555,-0.12731396450711419,1316.6042914262362,-0.41755181779902273,0.523598790168763,3.141592653589793,0
87.0,4.485168256603704,0.32852498240342604,-0.005239050999721124,-0.132505786769487,1321.1009581513836,-0.6763748081216079,0.523598790168763,3.141592653589793,0
88.0,4.470811375355441,0.333612897102798,-0.005334061762207513,-0.13779330604211992,1325.582626537959,-0.9517882030668829,0.523598790168763,3.141592653589793,0
89.0,4.456545682122595,0.3387579831255843,-0.005428244743276118,-0.14317542051562349,1330.0493064226127,-1.2440396951440391,0.523598790168763,3.141592653589793,0
90.0,4.442371429348144,0.3439348103473695,-0.005521631169624996,-0.1486513079965217,1334.5010172235102,-1.553361819803058,0.523598790168763,3.141592653589793,0
91.0,4.4282895146071475,0.34911369918685164,-0.005614246762192363,-0.15422020326637487,1338.9377684592118,-1.8800125895822077,0.523598790168763,3.141592653589793,0
92.0,4.4142986476354595,0.35427039057456566,-0.005706092068814994,-0.15988133058822207,1343.359558924445,-2.2242746804414253,0.523598790168763,3.141592653589793,0
93.0,4.400399754057364,0.35939112987407423,-0.005797142929889654,-0.16563388705248538,1347.7663883667487,-2.586433838954065,0.523598790168763,3.141592653589793,0
94.0,4.386593563152578,0.3644730560648986,-0.005887357764602534,-0.1714770960456633,1352.1582407634817,-2.9667910192408016,0.523598790168763,3.141592653589793,0
95.0,4.372880102970324,0.3695208498606894,-0.005976694033425492,-0.1774100705104127,1356.535107882385,-3.365625983541179,0.523598790168763,3.141592653589793,0
96.0,4.35925926131372,0.3745418145771987,-0.006065116866545656,-0.1834319365374597,1360.8969712132453,-3.7832143143396735,0.523598790168763,3.141592653589793,0
97.0,4.345729747918639,0.3795416897861441,-0.006152600543024837,-0.18954175447710497,1365.2438098168059,-4.219817028916836,0.523598790168763,3.141592653589793,0
98.0,4.332292151818699,0.3845218078254933,-0.006239127833395408,-0.1957385540007932,1369.5756043505041,-4.6756782033128275,0.523598790168763,3.141592653589793,0
99.0,4.31894675350611,0.3894770391940709,-0.006324685671749465,-0.2020214261376978,1373.892320212066,-5.151051990407879,0.523598790168763,3.141592653589793,0
100.0,4.305694226162156,0.3944035709509839,-0.006409253295071999,-0.2083893462138482,1378.193933206968,-5.646172118392045,0.523598790168763,3.141592653589793,0
101.0,4.292537795447178,0.39932004180316644,-0.006491653895114457,-0.21484102133436167,1382.4804054752058,-6.161278156615353,0.523598790168763,3.141592653589793,0
102.0,4.279485427339771,0.4042529687823231,-0.00656941138646117,-0.2213727595174424,1386.7517161453281,-6.696556486549113,0.523598790168763,3.141592653589793,0
103.0,4.266539197482232,0.409159110509105,-0.006642809658146373,-0.22798000013122266,1391.0078446649518,-7.252188695406119,0.523598790168763,3.141592653589793,0
104.0,4.253700788827782,0.41400573003719127,-0.006712181548423081,-0.23465858399861883,1395.2487549635052,-7.828384927945052,0.523598790168763,3.141592653589793,0
105.0,4.240971884329653,0.418777419579218,-0.0067778169451386105,-0.24140461841045102,1399.474416399125,-8.425344858562795,0.523598790168763,3.141592653589793,0
106.0,4.228352932775359,0.42347311852404024,-0.006839971907217249,-0.2482145156929887,1403.6847840293713,-9.043274070987763,0.523598790168763,3.141592653589793,0
107.0,4.215844411001659,0.4280998269052154,-0.006898884031482921,-0.255084902048063,1407.8798205053806,-9.682347341660346,0.523598790168763,3.141592653589793,0
108.0,4.203446795845289,0.4326660155872954,-0.006954772589618293,-0.2620126499848787,1412.0594853558355,-10.342720936290306,0.523598790168763,3.141592653589793,0
109.0,4.191160564143,0.43717689120681025,-0.007007839897756713,-0.2689948432585316,1416.2237359330795,-11.024535109509799,0.523598790168763,3.141592653589793,0
110.0,4.178987146405028,0.44163271847827745,-0.007058273836531736,-0.2760287610923049,1420.3725380263877,-11.727903461370786,0.523598790168763,3.141592653589793,0
111.0,4.166928449978359,0.44602923742635353,-0.007106240975724989,-0.2831118299680213,1424.505845347945,-12.452946541315058,0.523598790168763,3.141592653589793,0
112.0,4.154984839502856,0.4503599038173118,-0.007151890820001584,-0.2902417182921999,1428.6236211307419,-13.199763572186441,0.523598790168763,3.141592653589793,0
113.0,4.143156258880082,0.45461819620741656,-0.007195354055832152,-0.2974161155083177,1432.7258180701856,-13.968460530865272,0.523598790168763,3.141592653589793,0
114.0,4.1314428764053615,0.45879968106677343,-0.007236746934187532,-0.30463293370073874,1436.8123867560519,-14.759137813993917,0.523598790168763,3.141592653589793,0
115.0,4.119845168915433,0.46290244403609304,-0.007276175078004377,-0.3118901252746147,1440.8832807773742,-15.57188245928721,0.523598790168763,3.141592653589793,0
116.0,4.1083633327548466,0.46692695493981534,-0.007313734523075288,-0.3191858284613316,1444.9384405068447,-16.40679035027712,0.523598790168763,3.141592653589793,0
117.0,4.0969976484158,0.4708750772980189,-0.00734951618291858,-0.3265181569491764,1448.9778203668513,-17.263927297873693,0.523598790168763,3.141592653589793,0
118.0,4.085748115898296,0.4747489130491552,-0.0073836026987168756,-0.3338854120057828,1453.0013623900866,-18.143366339015017,0.523598790168763,3.141592653589793,0
119.0,4.074614735202334,0.47855019247950603,-0.007416072904186957,-0.3412859562565025,1457.0090130155168,-19.04516402942167,0.523598790168763,3.141592653589793,0
120.0,4.063597057540389,0.4822799516571482,-0.007447001305134715,-0.3487181610920569,1461.0007188150717,-19.96936744341943,0.523598790168763,3.141592653589793,0
121.0,4.052695699995304,0.4859385745057852,-0.00747645566897344,-0.35618055217402755,1464.9764178620987,-20.916027508735198,0.523598790168763,3.141592653589793,0
122.0,4.041910017435022,0.4895261223830874,-0.00750450129785072,-0.3636716849663486,1468.93605947053,-21.885172379837385,0.523598790168763,3.141592653589793,0
