Time,Surge Speed,Sway Speed,Yaw Rate,Heading,x,y,Rudder Angle,Wind Direction,Wind Speed
0.0,5.4106493935620215,0.0008702635512280093,-2.0377129176804722e-05,-0.01903617864146412,795.9206007248056,-9.86038751268579,0.0,3.141592653589793,0
1.0,5.410653208255956,0.0008522874044056223,-1.9956297311344872e-05,-0.01905637201579058,801.3303347525801,-9.96255898856252,0.0,3.141592653589793,0
2.0,5.410657022949941,0.0008346827693700531,-1.9544160322233396e-05,-0.01907614804804947,806.7400702925555,-10.064856263823543,0.0,3.141592653589793,0
3.0,5.41066080959469,0.0008174418634213483,-1.9140534812538517e-05,-0.019095516599283435,812.1498071495921,-10.167276696681498,0.0,3.141592653589793,0
4.0,5.410664175501157,0.0008005573044648968,-1.8745247229271375e-05,-0.019114486982709344,817.5595451322511,-10.269817791556406,0.0,3.141592653589793,0
5.0,5.410667036521633,0.000784021614534725,-1.8358125410434752e-05,-0.019133065224562706,822.9692842422515,-10.372477013648364,0.0,3.141592653589793,0
6.0,5.410670374378813,0.0007678276169748341,-1.7978999655017516e-05,-0.019151260857188213,828.379024286433,-10.475251937658669,0.0,3.141592653589793,0
7.0,5.41067323539934,0.0007519682926321819,-1.760770464898263e-05,-0.0191690817694381,833.7887652024813,-10.578140179447928,0.0,3.141592653589793,0
8.0,5.410676096419817,0.000736436519634405,-1.724407775327746e-05,-0.019186533987516796,839.198506797073,-10.681139367207692,0.0,3.141592653589793,0
9.0,5.410678480603538,0.0007212258095449112,-1.6887964567801475e-05,-0.019203627920321154,844.6082490703166,-10.78424726027906,0.0,3.141592653589793,0
10.0,5.410681257476358,0.000706329328105418,-1.6539204379490618e-05,-0.019220368388819686,850.0179918972248,-10.88746156060975,0.0,3.141592653589793,0
11.0,5.410683361167874,0.0006917406553588674,-1.619764888720929e-05,-0.01923676514449557,855.427735083461,-10.990780097593444,0.0,3.141592653589793,0
12.0,5.410685633154703,0.000677453367924232,-1.5863148291829937e-05,-0.019252823008335085,860.8374786290556,-11.094200709602063,0.0,3.141592653589793,0
13.0,5.410688017338424,0.0006634612547070615,-1.5535555041211932e-05,-0.019268549430903725,866.2472224711133,-11.19772127405568,0.0,3.141592653589793,0
14.0,5.4106899246854425,0.0006497583134755028,-1.5214730464163407e-05,-0.01928395186276699,871.6569664815476,-11.301339758541431,0.0,3.141592653589793,0
15.0,5.41069183203241,0.00063633839476669,-1.4900530807021597e-05,-0.01929903775454367,877.0667105342061,-11.405054099589563,0.0,3.141592653589793,0
16.0,5.410693262542673,0.0006231957599950182,-1.4592820983073608e-05,-0.019313813241955913,882.476454626184,-11.508862348346085,0.0,3.141592653589793,0
17.0,5.41069516988964,0.0006103246397590741,-1.4291466601102229e-05,-0.019328283036451843,887.8861986320105,-11.612762545222125,0.0,3.141592653589793,0
18.0,5.410696600399905,0.0005977194050405188,-1.3996335730875757e-05,-0.019342454369452255,893.2959425494066,-11.716752790091107,0.0,3.141592653589793,0
19.0,5.410698030910116,0.0005853746219876959,-1.3707302059630646e-05,-0.01935633436284423,898.7056861894138,-11.820831239802587,0.0,3.141592653589793,0
20.0,5.41069946142038,0.000573284846477025,-1.3424235636623341e-05,-0.01936992915238367,904.1154296160051,-11.924996042541366,0.0,3.141592653589793,0
21.0,5.4107005833891515,0.000561444853519463,-1.3147016890050744e-05,-0.019383243668609218,909.5251726361112,-12.029245447284438,0.0,3.141592653589793,0
22.0,5.410701845604102,0.0005498494283978846,-1.2875523466125313e-05,-0.019396283609026455,914.9349153120389,-12.133577677842865,0.0,3.141592653589793,0
23.0,5.410702799277559,0.0005384935549858491,-1.2609637077036423e-05,-0.019409054451996255,920.3446575187338,-12.23799103278266,0.0,3.141592653589793,0
24.0,5.410703752951069,0.0005273722582446413,-1.2349241788959514e-05,-0.019421562442882845,925.7543991918924,-12.34248384223811,0.0,3.141592653589793,0
25.0,5.410704706624578,0.0005164806692788224,-1.2094224075555389e-05,-0.01943381316960302,931.164140329921,-12.447054442608092,0.0,3.141592653589793,0
26.0,5.410705660298036,0.0005058141280555728,-1.1844473834465942e-05,-0.019445811124405132,936.5738808720533,-12.55170126229065,0.0,3.141592653589793,0
27.0,5.410706137134791,0.0004953678786707015,-1.1599881177331393e-05,-0.01945756266222709,941.9836206877344,-12.656422690195015,0.0,3.141592653589793,0
28.0,5.4107070908083,0.0004851374322902381,-1.1360340335267573e-05,-0.019469071070065347,947.3933598410135,-12.761217204232452,0.0,3.141592653589793,0
29.0,5.410707567645055,0.0004751183257600381,-1.1125746395385593e-05,-0.019480342702836495,952.803098205586,-12.866083290157164,0.0,3.141592653589793,0
30.0,5.410710765256156,0.0004823645586726877,-1.0896082719282503e-05,-0.01949138325802835,958.2128358459133,-12.971019040385599,0.006283185060201587,3.141592653589793,0
31.0,5.4111057543773855,0.009435878748597847,-1.4617123430430404e-05,-0.0195032629896561,963.6228915255599,-13.072746892077177,0.1808161034292588,3.141592653589793,0
32.0,5.407434672415724,0.028462446741138136,-3.689323463763855e-05,-0.019527251229569664,969.0321279511337,-13.159463169663425,0.3490658402442925,3.141592653589793,0
33.0,5.400192391766047,0.0399804131463946,-7.908402681868386e-05,-0.019584533813241656,974.4355578491316,-13.229636212807023,0.3490658402442925,3.141592653589793,0
34.0,5.3932944713947775,0.04081153828034623,-0.00012653199305234954,-0.019687810912729198,979.8320318785344,-13.294562056106557,0.3490658402442925,3.141592653589793,0
35.0,5.386557413302395,0.037241376098723834,-0.0001702341285312407,-0.019837105208464934,985.2216665488277,-13.361944972650477,0.3490658402442925,3.141592653589793,0
36.0,5.379762349422243,0.03422681681853861,-0.00020874519181852,-0.020027420100044324,990.6044642295836,-13.433718652467604,0.3490658402442925,3.141592653589793,0
37.0,5.3728928709604205,0.034682176627339224,-0.00024500380951530845,-0.02025468680350162,995.980377402909,-13.507890658934514,0.3490658402442925,3.141592653589793,0
38.0,5.366127959992186,0.039545672801540456,-0.00028360894237453016,-0.020518936874234228,1001.3494948800873,-13.580533330629848,0.3490658402442925,3.141592653589793,0
39.0,5.3595966429311686,0.047860823420467255,-0.00032874157220804187,-0.020824806764720982,1006.7120833160886,-13.6478141115023,0.3490658402442925,3.141592653589793,0
40.0,5.353262063101806,0.057689950211720985,-0.00038262781077572804,-0.02118021688040539,1012.0684226562212,-13.707474064843211,0.3490658402442925,3.141592653589793,0
41.0,5.347002486887656,0.06710273015353667,-0.0004450185840725748,-0.021593989694816962,1017.4186613680272,-13.759302802188202,0.3490658402442925,3.141592653589793,0
42.0,5.340758954827591,0.07484700770015539,-0.0005137932603242569,-0.02207360602915287,1022.7628157437678,-13.804756188674617,0.3490658402442925,3.141592653589793,0
43.0,5.334581759173706,0.08056507925220335,-0.0005861380281305209,-0.02262404013204833,1028.1008784466067,-13.84611678006317,0.3490658402442925,3.141592653589793,0
44.0,5.328548988955522,0.08464380272486721,-0.0006594411302900617,-0.02324745683547036,1033.4329212627924,-13.885645045580787,0.3490658402442925,3.141592653589793,0
45.0,5.3226650759497565,0.08784708329544097,-0.0007320388069590402,-0.02394392045542837,1038.759068849923,-13.924991963274422,0.3490658402442925,3.141592653589793,0
46.0,5.316857092183579,0.09093464549257628,-0.0008034248569263029,-0.024712394922975278,1044.079424982432,-13.965013098608267,0.3490658402442925,3.141592653589793,0
47.0,5.311057607331172,0.09440177456068258,-0.0008738961255665856,-0.02555175158468259,1049.3940307213697,-14.005915336077749,0.3490658402442925,3.141592653589793,0
48.0,5.30527613007824,0.09839933980554605,-0.0009440388598967301,-0.02646136524921161,1054.7029020937036,-14.04758035900548,0.3490658402442925,3.141592653589793,0
49.0,5.299577089483941,0.10280176530585172,-0.0010143472018701305,-0.027441140921662388,1060.0061032123351,-14.089887820419975,0.3490658402442925,3.141592653589793,0
50.0,5.2940067387127,0.1073486964450709,-0.0010850458638737327,-0.028491421000045314,1065.3037510674687,-14.132926000654763,0.3490658402442925,3.141592653589793,0
51.0,5.288544770128979,0.1117822500059516,-0.0011560641270235183,-0.029612585244792378,1070.595971332273,-14.177052856083677,0.3490658402442925,3.141592653589793,0
52.0,5.283137385328038,0.11593603056269877,-0.0012271080426318646,-0.030804821454414544,1075.8828397462062,-14.222841759117586,0.3490658402442925,3.141592653589793,0
53.0,5.277754880185634,0.11976291498682394,-0.0012977851951927796,-0.03206796023774228,1081.1643804487821,-14.270970066769692,0.3490658402442925,3.141592653589793,0
54.0,5.272417870878642,0.12331429076484826,-0.0013677349574310793,-0.03340141058843571,1086.4406159853083,-14.322104643164394,0.3490658402442925,3.141592653589793,0
55.0,5.267164476297527,0.12669273082777147,-0.0014367208008046566,-0.03480433782232861,1091.7115992345512,-14.376829383806694,0.3490658402442925,3.141592653589793,0
56.0,5.262002634371752,0.13000251779423014,-0.0015046595773818801,-0.03627571726544776,1096.9774148732004,-14.435613396307375,0.3490658402442925,3.141592653589793,0
57.0,5.256905838587968,0.1333139658004572,-0.001571583547902818,-0.0378145211759664,1102.2381363401516,-14.498831814835029,0.3490658402442925,3.141592653589793,0
58.0,5.251844749461742,0.1366504468593241,-0.0016375715118444273,-0.03941977812961461,1107.4938063595475,-14.566805808864572,0.3490658402442925,3.141592653589793,0
59.0,5.246816393775652,0.13999627356780234,-0.0017026896821329867,-0.04109056293963853,1112.7444518785305,-14.639846355665284,0.3490658402442925,3.141592653589793,0
60.0,5.241845875581969,0.14331620208050017,-0.00176696451243839,-0.042826046838471576,1117.9901069358561,-14.718291040565475,0.3490658402442925,3.141592653589793,0
61.0,5.236950753692647,0.14657554690681884,-0.0018303859157154027,-0.044625364463104056,1123.2308318178007,-14.80250454466696,0.3490658402442925,3.141592653589793,0
62.0,5.232125782903438,0.14975270576438418,-0.001892919179654237,-0.04648766118812997,1128.4666869318712,-14.89287951051277,0.3490658402442925,3.141592653589793,0
63.0,5.227347457967752,0.15284255265817423,-0.00195452018969588,-0.04841202935749678,1133.6977160286824,-14.989813726221968,0.3490658402442925,3.141592653589793,0
64.0,5.222603184785522,0.15585291595028566,-0.002015149316695194,-0.05039750280623512,1138.9239416479782,-15.093696003911248,0.3490658402442925,3.141592653589793,0
65.0,5.217899246382215,0.1587981805080762,-0.0020747819285396674,-0.05244310901444127,1144.145380335429,-15.204901058253157,0.3490658402442925,3.141592653589793,0
66.0,5.213251771059523,0.16169303798725168,-0.002133413697318514,-0.05454782922475854,1149.362064274298,-15.32377799243011,0.3490658402442925,3.141592653589793,0
67.0,5.208666312563086,0.16454794987047164,-0.002191056593266005,-0.05671068324760409,1154.5740333155175,-15.450663660379263,0.3490658402442925,3.141592653589793,0
68.0,5.20413221218909,0.16736720505883684,-0.0022477311739583766,-0.058930690893332915,1159.781325329796,-15.58587743124248,0.3490658402442925,3.141592653589793,0
69.0,5.199636006311825,0.17014957289280458,-0.0023034566684676156,-0.061206887311783476,1164.9839626690557,-15.729732588993684,0.3490658402442925,3.141592653589793,0
70.0,5.195175058304546,0.17289069960745101,-0.002358246676842495,-0.06353834709699324,1170.1819561919535,-15.882541395541239,0.3490658402442925,3.141592653589793,0
71.0,5.190758231720939,0.17558615167288058,-0.002412111073841486,-0.0659241124110812,1175.375321291648,-16.04461063624848,0.3490658402442925,3.141592653589793,0
72.0,5.186393043752033,0.1782333801161942,-0.0024650562417634124,-0.06836328392517288,1180.564077383105,-16.21625297384992,0.3490658402442925,3.141592653589793,0
73.0,5.182078652921158,0.18083235162894076,-0.0025170870974436316,-0.07085493338456228,1185.7482490560033,-16.397770203195165,0.3490658402442925,3.141592653589793,0
74.0,5.177804540770785,0.18335523261913644,-0.0025681996827611998,-0.0733981575159266,1190.9278501038232,-16.58947119323045,0.3490658402442925,3.141592653589793,0
75.0,5.173564704767706,0.18578543284946977,-0.0026183501981632707,-0.07599201360168006,1196.1028811090566,-16.79169624555408,0.3490658402442925,3.141592653589793,0
76.0,5.16936046322524,0.18817390635835404,-0.002667529508471059,-0.07863551378248079,1201.273341749688,-17.004748091941238,0.3490658402442925,3.141592653589793,0
77.0,5.1651979308734886,0.1905545041720814,-0.0027157771675021453,-0.08132773374806845,1206.439234397959,-17.22888909849175,0.3490658402442925,3.141592653589793,0
78.0,5.161080445569581,0.1929381339312227,-0.0027631529579482702,-0.08406774612030876,1211.6005714427433,-17.46434422495362,0.3490658402442925,3.141592653589793,0
79.0,5.15700466945644,0.19531711365555046,-0.0028097117045780533,-0.0868547251995544,1216.7573601039762,-17.711341114400057,0.3490658402442925,3.141592653589793,0
80.0,5.1529645719515695,0.19767434646871185,-0.0028554883319880406,-0.08968786018734054,1221.9096014712102,-17.970111816024257,0.3490658402442925,3.141592653589793,0
81.0,5.148958666446334,0.199992645210927,-0.0029004973441577445,-0.092566384988654,1227.0572899912509,-18.240900472359385,0.3490658402442925,3.141592653589793,0
82.0,5.144989477370536,0.2022608050951968,-0.00294473828912179,-0.09548953701465557,1232.2004155165985,-18.52396718443582,0.3490658402442925,3.141592653589793,0
83.0,5.141060118187711,0.2044757363245907,-0.0029882050037160937,-0.09845653000998045,1237.3389724316175,-18.819565860222497,0.3490658402442925,3.141592653589793,0
84.0,5.137170560848556,0.20664084950899708,-0.0030308916397827155,-0.1014666097128778,1242.472951225784,-19.127955086773696,0.3490658402442925,3.141592653589793,0
85.0,5.1333157003949985,0.20876296499165628,-0.003072798128842032,-0.10451897671991084,1247.602340985663,-19.449376523445608,0.3490658402442925,3.141592653589793,0
86.0,5.129493629480056,0.21084900654730845,-0.0031139317434277316,-0.1076128574854831,1252.727125110173,-19.784062568270357,0.3490658402442925,3.141592653589793,0
87.0,5.125703955414628,0.21290384334530116,-0.003154307329917282,-0.11074749336519929,1257.8472836208937,-20.132237953979725,0.3490658402442925,3.141592653589793,0
88.0,5.121949370923891,0.21492961852137912,-0.0031939431997560276,-0.11392212396156687,1262.9627994064542,-20.494112475082844,0.3490658402442925,3.141592653589793,0
89.0,5.118230605287557,0.2169260638548721,-0.003232857226119829,-0.11713603138919826,1268.0736524221259,-20.86990145158279,0.3490658402442925,3.141592653589793,0
90.0,5.114546480438378,0.21889164277442666,-0.0032710640362515163,-0.12038849688625053,1273.1798240889825,-21.2598067666636,0.3490658402442925,3.141592653589793,0
91.0,5.110894219503535,0.2208246819687406,-0.003308575025156658,-0.12367881878330955,1278.2812896405612,-21.664034398034858,0.3490658402442925,3.141592653589793,0
92.0,5.10727289685876,0.22272417166588065,-0.0033453998895467984,-0.12700630110850408,1283.3780206625945,-22.08278664144288,0.3490658402442925,3.141592653589793,0
93.0,5.10368287714391,0.22458906440277304,-0.0033815479837354602,-0.13037027418610148,1288.46998868229,-22.516257664167966,0.3490658402442925,3.141592653589793,0
94.0,5.100125590869232,0.22641868787466804,-0.0034170268541746434,-0.13377004774173606,1293.5571611392286,-22.96465055742931,0.3490658402442925,3.141592653589793,0
95.0,5.096601038034728,0.22821650966643311,-0.003451845827786033,-0.1372049766427912,1298.6395093674205,-23.428148712112318,0.3490658402442925,3.141592653589793,0
96.0,5.093107423490281,0.2299854574154444,-0.0034860160256568254,-0.14067439734933096,1303.7169987638301,-23.906939584906283,0.3490658402442925,3.141592653589793,0
97.0,5.089643288676445,0.23172720618608011,-0.0035195496234601267,-0.14417766823484435,1308.7895938319461,-24.401199337484655,0.3490658402442925,3.141592653589793,0
98.0,5.086208549445555,0.23344219950663758,-0.003552460810169253,-0.14771415205559002,1313.857256901737,-24.911098289353617,0.3490658402442925,3.141592653589793,0
99.0,5.082803907028121,0.23513010166301077,-0.00358476235038184,-0.1512832553947332,1318.9199471763104,-25.436810814047817,0.3490658402442925,3.141592653589793,0
100.0,5.079429641916339,0.23679031836234316,-0.0036164669402159585,-0.15488435590964844,1323.9776267989403,-25.97849660393007,0.3490658402442925,3.141592653589793,0
101.0,5.076085473618012,0.23842245428593506,-0.0036475839613769366,-0.15851685755390044,1329.0302524790857,-26.53632439870765,0.3490658402442925,3.141592653589793,0
102.0,5.0727696069830435,0.24002651907570635,-0.003678122672306837,-0.16218019233026215,1334.0777811879993,-27.11045090333458,0.3490658402442925,3.141592653589793,0
103.0,5.069481565174675,0.24160297992648352,-0.0037080917699149995,-0.1658737755873272,1339.1201663803295,-27.701032380218052,0.3490658402442925,3.141592653589793,0
104.0,5.066221965275755,0.24315260380913584,-0.003737501128959911,-0.16959705685865156,1344.1573590252744,-28.30822459712337,0.3490658402442925,3.141592653589793,0
105.0,5.062990358498765,0.24467623220027424,-0.0037663607748551343,-0.17334946201124968,1349.189312197137,-28.932170302501532,0.3490658402442925,3.141592653589793,0
106.0,5.05978744607421,0.2461746215523107,-0.003794680733014289,-0.17713046775141095,1354.215973924793,-29.573020893033615,0.3490658402442925,3.141592653589793,0
107.0,5.056611909688736,0.24764834249157205,-0.0038224707549325953,-0.18093952185963147,1359.2372946001524,-30.2309113182734,0.3490658402442925,3.141592653589793,0
108.0,5.053463132259493,0.24909784205250768,-0.0038497406058011032,-0.1847761019187404,1364.2532200226522,-30.90598090858343,0.3490658402442925,3.141592653589793,0
109.0,5.050340777195835,0.2505234051100125,-0.003876499845372172,-0.18863969953617854,1369.2636947078136,-31.5983644294282,0.3490658402442925,3.141592653589793,0
110.0,5.047245433531386,0.2519253700078065,-0.003902758471667554,-0.19252979755397615,1374.268663941782,-32.30818745934593,0.3490658402442925,3.141592653589793,0
111.0,5.04417662442941,0.25330403476885655,-0.003928525428123127,-0.19644591913500342,1379.268067710636,-33.03558552885586,0.3490658402442925,3.141592653589793,0
112.0,5.041134349889904,0.2546597096876626,-0.003953810342970812,-0.20038756815823522,1384.2618503418116,-33.7806742562298,0.3490658402442925,3.141592653589793,0
113.0,5.038118020879233,0.2559928119963775,-0.003978620913317802,-0.20435426340380936,1389.2499502244368,-34.54357918775467,0.3490658402442925,3.141592653589793,0
114.0,5.03512702031456,0.2573037186064007,-0.004002966671524504,-0.20834553592341631,1394.232305942231,-35.324416589796115,0.3490658402442925,3.141592653589793,0
115.0,5.032161011605227,0.25859291161370707,-0.004026855177738924,-0.21236092728724998,1399.2088554370162,-36.12329826564418,0.3490658402442925,3.141592653589793,0
116.0,5.029220836227857,0.25986058385668587,-0.004050296786076731,-0.21639999221350958,1404.1795327586615,-36.940341608533345,0.3490658402442925,3.141592653589793,0
117.0,5.026305316115192,0.2611068054583891,-0.00407330004279213,-0.22046226964275473,1409.144275212126,-37.77564774855058,0.3490658402442925,3.141592653589793,0
118.0,5.023414900054749,0.2623322706370201,-0.004095872069763646,-0.22454734321899483,1414.103014356637,-38.62932836013239,0.3490658402442925,3.141592653589793,0
119.0,5.020548634373051,0.2635375018093085,-0.004118020564098444,-0.2286547746728127,1419.0556837939864,-39.50148189619365,0.3490658402442925,3.141592653589793,0
120.0,5.017706462971641,0.2647227075913305,-0.004139753907699677,-0.23278414326553776,1424.0022145727676,-40.39220760244554,0.3490658402442925,3.141592653589793,0
121.0,5.0148883017028725,0.2658881562037562,-0.004161079112878493,-0.2369350457892514,1428.9425355720086,-41.30160582188,0.3490658402442925,3.141592653589793,0
122.0,5.01209384202531,0.267034142163399,-0.004182004342403376,-0.24110707202375625,1433.876577968166,-42.22976400750238,0.3490658402442925,3.141592653589793,0
